#Frequency [Hz]	Relative permittivity
1000000	860.42
1258900	783.15
1584900	716.21
1995300	657.07
2511900	603.49
3162300	553.52
3981100	505.56
5011900	458.44
6309600	411.58
7943300	365.07
10000000	319.67
12589000	276.58
15849000	237.05
19953000	202.08
25119000	172.17
31623000	147.3
39811000	127.08
50119000	110.92
63096000	98.124
79433000	88.054
100000000	80.14
125890000	73.915
158490000	69.001
199530000	65.103
251190000	61.994
316230000	59.496
398110000	57.473
501190000	55.817
630960000	54.444
794330000	53.285
1000000000	52.282
1258900000	51.384
1584900000	50.54
1995300000	49.701
2511900000	48.811
3162300000	47.805
3981100000	46.607
5011900000	45.13
6309600000	43.277
7943300000	40.958
10000000000	38.112
