#Frequency [Hz]	Relative permittivity
1000000	27.222
1258900	25.596
1584900	24.204
1995300	22.964
2511900	21.802
3162300	20.652
3981100	19.454
5011900	18.167
6309600	16.773
7943300	15.289
10000000	13.767
12589000	12.284
15849000	10.918
19953000	9.7259
25119000	8.7363
31623000	7.9466
39811000	7.3353
50119000	6.8717
63096000	6.5246
79433000	6.2663
100000000	6.0741
125890000	5.9304
158490000	5.822
199530000	5.7392
251190000	5.6746
316230000	5.6231
398110000	5.5806
501190000	5.544
630960000	5.5109
794330000	5.4792
1000000000	5.447
1258900000	5.4125
1584900000	5.3735
1995300000	5.3281
2511900000	5.2737
3162300000	5.2076
3981100000	5.1267
5011900000	5.028
6309600000	4.9087
7943300000	4.7669
10000000000	4.6023
