#Frequency [Hz]	Relative permittivity
1000000	1967.3
1258900	1628.1
1584900	1335.4
1995300	1089.6
2511900	888.12
3162300	725.78
3981100	596.28
5011900	493.35
6309600	411.45
7943300	346.02
10000000	293.47
12589000	251.03
15849000	216.56
19953000	188.43
25119000	165.38
31623000	146.41
39811000	130.77
50119000	117.83
63096000	107.11
79433000	98.214
100000000	90.816
125890000	84.659
158490000	79.528
199530000	75.246
251190000	71.666
316230000	68.667
398110000	66.147
501190000	64.018
630960000	62.208
794330000	60.652
1000000000	59.29
1258900000	58.069
1584900000	56.934
1995300000	55.827
2511900000	54.687
3162300000	53.437
3981100000	51.993
5011900000	50.254
6309600000	48.112
7943300000	45.465
10000000000	42.241
