#Time (ns)	Electric field (V/m)
0	0
0.069122	0.0134252
0.138244	0.00893945
0.207366	0.00899123
0.276488	0.00636398
0.34561	0.00275303
0.414732	-0.00330251
0.483854	-0.012898
0.552976	-0.0226428
0.622098	-0.0312052
0.69122	-0.0377916
0.760342	-0.034487
0.829464	-0.0215251
0.898586	0.00175966
0.967708	0.0344701
1.03683	0.0705328
1.10595	0.101676
1.17507	0.119805
1.2442	0.115277
1.31332	0.0805394
1.38244	0.0150118
1.45156	-0.0756841
1.52068	-0.178014
1.58981	-0.27046
1.65893	-0.328123
1.72805	-0.327418
1.79717	-0.251016
1.86629	-0.0950531
1.93542	0.126122
2.00454	0.379227
2.07366	0.614494
2.14278	0.773263
2.2119	0.800321
2.28103	0.657422
2.35015	0.336128
2.41927	-0.132906
2.48839	-0.678402
2.55751	-1.19632
2.62664	-1.56675
2.69576	-1.67832
2.76488	-1.45557
2.834	-0.882837
2.90312	-0.0189654
2.97225	1.00249
3.04137	1.99034
3.11049	2.72894
3.17961	3.0222
3.24873	2.74019
3.31786	1.85775
3.38698	0.474917
3.4561	-1.18782
3.52522	-2.82183
3.59434	-4.08646
3.66347	-4.67902
3.73259	-4.4044
3.80171	-3.22863
3.87083	-1.30255
3.93995	1.0527
4.00908	3.39866
4.0782	5.26275
4.14732	6.23552
4.21644	6.06168
4.28556	4.7042
4.35469	2.36562
4.42381	-0.540739
4.49293	-3.46629
4.56205	-5.83517
4.63117	-7.16271
4.7003	-7.15897
4.76942	-5.79439
4.83854	-3.3121
4.90766	-0.182959
4.97678	2.9881
5.04591	5.5851
5.11503	7.10704
5.18415	7.27007
5.25327	6.06378
5.32239	3.74986
5.39152	0.803961
5.46064	-2.18591
5.52976	-4.64198
5.59888	-6.11367
5.668	-6.36416
5.73713	-5.40918
5.80625	-3.50178
5.87537	-1.06857
5.94449	1.38664
6.01361	3.38961
6.08274	4.58968
6.15186	4.82181
6.22098	4.12581
6.2901	2.72158
6.35922	0.949124
6.42835	-0.811197
6.49747	-2.21962
6.56659	-3.04187
6.63571	-3.18572
6.70483	-2.70438
6.77396	-1.76926
6.84308	-0.621299
6.9122	0.486533
6.98132	1.34233
7.05044	1.81317
7.11957	1.86176
7.18869	1.54091
7.25781	0.970027
7.32693	0.30098
7.39605	-0.317842
7.46518	-0.771449
7.5343	-0.996631
7.60342	-0.986681
7.67254	-0.783554
7.74166	-0.461148
7.81079	-0.104711
7.87991	0.208612
7.94903	0.424163
8.01815	0.51691
8.08727	0.491137
8.1564	0.374101
8.22552	0.206132
8.29464	0.0299293
8.36376	-0.118541
8.43288	-0.215935
8.50201	-0.253648
8.57113	-0.236486
8.64025	-0.178887
8.70937	-0.100016
8.77849	-0.0189836
8.84762	0.0488584
8.91674	0.0940293
8.98586	0.11338
9.05498	0.109215
9.1241	0.0875507
9.19323	0.0561081
9.26235	0.0224715
9.33147	-0.00724932
9.40059	-0.029131
9.46971	-0.0415551
9.53884	-0.0448761
9.60796	-0.0408248
9.67708	-0.0318407
9.7462	-0.020475
9.81532	-0.00894929
9.88445	0.00109406
9.95357	0.00867196
10.0227	0.0134092
10.0918	0.0115081
10.1609	0.0138392
10.2301	0.0122789
10.2992	0.00969088
10.3683	0.0052142
10.4374	0.00291785
10.5065	-0.000589744
10.5757	-0.0030806
10.6448	-0.00422254
10.7139	-0.00466796
10.783	-0.00515536
10.8522	-0.00487067
10.9213	-0.00413183
10.9904	-0.0033577
11.0595	-0.00195429
11.1286	-0.000464079
11.1978	0.000664002
11.2669	0.00169618
11.336	0.00249941
11.4051	0.0027647
11.4743	0.00267526
11.5434	0.00227648
11.6125	0.00151872
11.6816	0.000742944
11.7507	0.000107851
11.8199	-0.000465156
11.889	-0.000880135
11.9581	-0.00108895
12.0272	-0.00117524
12.0963	-0.00111227
12.1655	-0.000905324
12.2346	-0.000669357
12.3037	-0.000425339
12.3728	-0.000149812
12.442	0.000104587
12.5111	0.000317147
12.5802	0.00048172
12.6493	0.000556087
12.7184	0.000541104
12.7876	0.000474985
12.8567	0.000364177
12.9258	0.000219238
12.9949	7.21843E-05
13.0641	-6.21395E-05
13.1332	-0.000170124
13.2023	-0.00023152
13.2714	-0.000250538
13.3405	-0.000242588
13.4097	-0.000209979
13.4788	-0.000159106
13.5479	-0.000100658
13.617	-3.82824E-05
13.6862	1.94371E-05
13.7553	6.32957E-05
13.8244	9.28521E-05
13.8935	0.000110679
13.9626	0.000112971
14.0318	0.000103166
14.1009	8.17214E-05
14.17	5.28489E-05
14.2391	0.000021649
14.3083	-5.9747E-06
14.3774	-0.000028347
14.4465	-4.45693E-05
14.5156	-5.27476E-05
14.5847	-5.36316E-05
14.6539	-4.79592E-05
14.723	-0.000036674
14.7921	-2.37886E-05
14.8612	-1.06475E-05
14.9304	1.63061E-06
14.9995	1.17949E-05
15.0686	1.89442E-05
15.1377	0.00002326
15.2068	2.41616E-05
15.276	2.18158E-05
15.3451	1.76267E-05
15.4142	1.20119E-05
15.4833	6.04783E-06
15.5524	9.07833E-08
15.6216	-0.000004921
15.6907	-8.90894E-06
15.7598	-1.08936E-05
15.8289	-1.14668E-05
15.8981	-1.03244E-05
15.9672	-0.000008615
16.0363	-5.89131E-06
16.1054	-2.92383E-06
16.1745	-2.12055E-07
16.2437	2.24178E-06
16.3128	3.86106E-06
16.3819	4.78781E-06
16.451	5.19122E-06
16.5202	4.8361E-06
16.5893	4.04323E-06
16.6584	2.77731E-06
16.7275	0.000001557
16.7966	8.74901E-08
16.8658	-7.3772E-07
16.9349	-1.57667E-06
17.004	-2.23047E-06
17.0731	-2.44356E-06
17.1423	-2.31133E-06
17.2114	-1.89972E-06
17.2805	-1.33931E-06
17.3496	-7.80638E-07
17.4187	-1.70095E-07
17.4879	3.543E-07
17.557	7.68292E-07
17.6261	9.1354E-07
17.6952	1.06461E-06
17.7644	0.00000099
17.8335	8.55431E-07
17.9026	6.69506E-07
17.9717	4.21219E-07
18.0408	-1.57029E-08
18.11	-9.61442E-08
18.1791	-3.64492E-07
18.2482	-4.83411E-07
18.3173	-3.9381E-07
18.3865	-4.78488E-07
18.4556	-4.48196E-07
18.5247	-3.52259E-07
18.5938	-1.57618E-07
18.6629	-1.12133E-07
18.7321	7.35978E-08
18.8012	1.8031E-07
18.8703	1.61425E-07
18.9394	2.87267E-07
19.0085	9.84081E-08
19.0777	1.46647E-07
19.1468	1.80451E-07
19.2159	4.70895E-08
19.285	5.3715E-08
19.3542	2.96208E-08
19.4233	-5.58185E-08
19.4924	-6.5138E-08
19.5615	-9.18308E-08
19.6306	-1.12262E-07
19.6998	-1.55711E-08
19.7689	-8.35003E-08
19.838	1.13305E-08
19.9071	-3.53825E-08
